-0.060150
-0.029127
-0.031485
-0.006629
-0.011666
-0.067787
-0.052795
-0.019225
-0.053886
-0.086402
-0.047801
-0.004627
-0.044579
-0.078771
-0.023728
-0.050819
-0.042101
-0.096141
-0.071438
-0.071882
-0.057396
-0.072879
-0.077344
-0.058759
-0.000249
-0.046126
-0.058455
-0.025109
-0.042758
-0.011317
-0.061427
-0.035457
-0.038806
-0.021138
-0.046897
-0.034536
-0.054355
-0.037859
-0.076461
-0.064466
-0.047844
-0.048210
-0.031591
-0.045580
-0.035667
-0.024146
-0.051114
-0.065099
-0.064030
-0.048683
-0.043839
-0.050915
-0.058743
-0.016279
-0.034060
-0.041661
-0.059473
-0.062841
-0.037043
-0.058637
-0.001545
-0.026746
-0.000594
-0.027116
-0.021634
-0.067576
-0.030461
-0.081439
-0.033420
-0.037570
-0.037547
-0.033169
-0.029421
-0.031410
-0.026671
-0.044202
-0.052115
-0.010112
-0.088268
-0.024305
-0.021545
-0.008767
0.015236
-0.000206
-0.042308
-0.023337
-0.028132
-0.027070
-0.000565
-0.002419
-0.013686
-0.014701
0.018195
0.014374
0.033559
0.009868
-0.022831
0.012140
-0.005688
-0.007436
0.050945
-0.012229
0.047969
0.026495
0.018142
0.002602
0.021811
-0.010948
0.005326
0.021706
0.031771
0.025890
0.027483
0.016399
0.022354
0.037242
0.045697
0.023151
0.014437
0.049205
0.040710
0.046196
0.051043
0.041861
0.070190
0.042424
0.066728
0.040928
0.060234
0.043707
0.022679
0.052639
0.021077
0.088771
0.091133
0.034309
0.048973
0.054431
0.045264
0.096690
0.061732
0.086457
0.054281
0.086547
0.075377
0.088120
0.077371
0.086941
0.052025
0.078694
0.056466
0.062999
0.076956
0.100304
0.106261
0.052670
0.068661
0.045057
0.096261
0.051299
0.057070
0.116824
0.097609
0.129625
0.102241
0.082365
0.053065
0.027674
0.045045
0.041743
0.087708
0.038769
0.034679
0.052513
0.014413
0.057001
0.058119
0.034341
0.044838
0.054054
0.077294
0.074055
0.077282
0.055376
0.060455
0.037042
0.030181
0.016553
0.024248
0.035769
0.032407
0.001730
0.059654
0.042633
0.081970
0.075645
0.069837
0.004964
0.008619
0.026968
0.093327
0.045853
0.037614
0.042395
0.026610
0.040838
0.011269
0.001297
0.000165
0.023523
0.004326
0.007892
0.033788
0.009918
0.025995
0.022669
0.007868
0.006419
0.012197
0.015386
0.074964
0.086433
0.091837
0.153135
0.166144
0.157810
0.160660
0.211716
0.242735
0.308061
0.382218
0.422103
0.475988
0.548937
0.622377
0.651150
0.681587
0.795716
0.755575
0.866006
0.932788
0.960361
1.023295
1.106661
1.055833
1.112666
1.131748
1.179768
1.206189
1.220721
1.170061
1.195244
1.192000
1.149907
1.133221
1.082699
1.071153
0.984457
0.971986
0.897066
0.843098
0.814358
0.738158
0.668024
0.591314
0.526519
0.432542
0.380188
0.279246
0.203614
0.222121
0.124787
0.122223
0.020929
-0.010156
-0.093294
-0.083482
-0.096060
-0.154286
-0.152872
-0.153117
-0.159817
-0.160767
-0.127116
-0.137225
-0.072400
-0.129839
-0.056710
-0.095165
-0.075973
-0.053184
-0.013884
-0.000552
0.026746
0.032769
0.016859
0.065292
0.039639
0.046380
0.085345
0.061031
0.083789
0.102412
0.117916
0.108746
0.101204
0.108190
0.094377
0.100042
0.091901
0.095935
0.117008
0.127738
0.180909
0.114749
0.123108
0.103790
0.135562
0.131086
0.126084
0.130364
0.169604
0.149028
0.144472
0.138853
0.180843
0.140899
0.170738
0.167072
0.159395
0.196907
0.204663
0.164437
0.222170
0.174767
0.184989
0.207664
0.226078
0.208020
0.198762
0.235274
0.209064
0.230057
0.212413
0.219746
0.207455
0.205255
0.229489
0.242672
0.251470
0.269321
0.248345
0.246821
0.234801
0.282606
0.290534
0.274029
0.250713
0.280536
0.206610
0.248851
0.280919
0.295071
0.257365
0.272321
0.310047
0.267567
0.285596
0.289404
0.289747
0.310926
0.332667
0.318706
0.271624
0.312574
0.287260
0.309984
0.294815
0.310392
0.285738
0.346843
0.311292
0.356125
0.348602
0.335864
0.331928
0.312471
0.338216
0.285199
0.294800
0.308989
0.353632
0.362498
0.352283
0.341415
0.329118
0.333095
0.304624
0.335149
0.314257
0.349177
0.397396
0.331471
0.348270
0.353108
0.357942
0.317357
0.294015
0.326068
0.295432
0.334852
0.332112
0.361705
0.331846
0.333258
0.341874
0.324835
0.322787
0.304151
0.283588
0.363814
0.295717
0.326279
0.329432
0.339130
0.317099
0.300040
0.294389
0.283217
0.289810
0.312756
0.329546
0.299700
0.314942
0.343507
0.238535
0.296143
0.291058
0.263336
0.311890
0.256480
0.308935
0.305351
0.269451
0.301118
0.273004
0.227249
0.232269
0.244489
0.218943
0.230246
0.260797
0.261603
0.254592
0.283709
0.248576
0.258841
0.222273
0.200450
0.229612
0.186821
0.180586
0.212585
0.235622
0.239649
0.223830
0.226325
0.184239
0.190785
0.195376
0.206753
0.186441
0.212017
0.206159
0.178547
0.175694
0.216565
0.164953
0.163895
0.171200
0.180511
0.165634
0.185242
0.188037
0.187069
0.185553
0.144753
0.124956
0.124931
0.134646
0.165581
0.162312
0.199135
0.149052
0.104929
0.106845
0.095613
0.093031
0.108845
0.091211
0.085866
0.051754
0.069884
0.069589
0.045287
0.056127
0.088166
0.057551
0.038733
0.053645
0.038996
0.049679
0.075417
0.067175
0.060487
0.040388
0.037876
0.040305
0.026868
0.005924
0.037214
0.102806
0.073451
0.050233
0.052483
0.019695
0.069490
0.051862
0.058295
0.080328
0.051562
0.039791
0.072350
0.014157
0.045792
0.033037
0.037002
0.061504
0.057479
0.050014
0.054922
0.091698
0.026583
0.055638
0.067706
0.050317
0.058783
0.001634
0.084204
0.098680
0.056918
0.034903
0.048792
0.073010
0.073926
0.054553
0.051473
0.050290
0.054082
0.028823
0.041038
0.043936
0.081991
0.058495
0.083987
0.069982
0.027039
0.038451
0.035100
0.072526
0.032228
0.016907
0.068816
0.046889
0.074288
0.045035
0.046254
0.054686
0.043628
0.035258
0.064258
0.072942
0.055879
0.087267
0.073339
0.082426
0.063556
0.060943
0.071719
0.062992
0.071529
0.081854
0.073795
0.096296
0.132867
0.072059
0.040334
0.069476
0.056655
0.073550
0.083807
0.062284
0.077305
0.066316
0.104665
0.108981
0.084719
0.106572
0.081889
0.065814
0.093765
0.067529
0.136982
0.115485
0.108622
0.109478
0.059272
0.097748
0.123600
0.094469
0.120138
0.100734
0.117086
0.134210
0.112748
0.138980
0.107397
0.093046
0.089335
0.090006
0.125824
0.073609
0.172557
0.109773
0.123685
0.070971
0.177002
0.102828
0.137973
0.136165
0.072747
0.130230
0.141143
0.139691
0.147715
0.112892
0.105409
0.107856
0.132473
0.123809
0.096768
0.133335
0.127708
0.121219
0.153917
0.118522
0.111262
0.126530
0.127171
0.106506
0.102531
0.121339
0.119962
0.113432
0.123896
0.143160
0.081092
0.080421
0.095833
0.074807
0.115658
0.096946
0.111425
0.104947
0.113558
0.102671
0.126791
0.115340
0.069740
0.058926
0.080461
0.107643
0.103040
0.125365
0.086416
0.071591
0.098357
0.077378
0.103043
0.074062
0.079617
0.039591
0.094202
0.112794
0.105987
0.103189
0.043237
0.058950
0.063105
0.068574
0.016638
0.090861
0.043065
0.059031
0.092908
0.028826
0.057790
0.044302
0.005669
0.031265
0.032184
0.046580
0.031237
0.042852
0.017394
0.039796
0.011617
0.047494
0.058900
0.019503
0.015383
0.064176
0.083551
0.076444
0.126937
0.186042
0.163017
0.210196
0.280944
0.283348
0.319715
0.390370
0.426279
0.471758
0.554014
0.620328
0.665416
0.715620
0.765298
0.826416
0.838080
0.922614
0.983575
1.008440
1.082220
1.153006
1.094555
1.131086
1.159395
1.162496
1.196184
1.179400
1.207151
1.176003
1.174571
1.110783
1.115041
1.010119
1.027809
0.957267
0.860714
0.868189
0.737794
0.751998
0.678523
0.576036
0.486345
0.475049
0.339780
0.293744
0.217457
0.151210
0.045379
0.046747
0.005931
-0.036990
-0.107425
-0.113239
-0.117108
-0.131745
-0.166094
-0.123809
-0.148299
-0.135500
-0.120739
-0.168430
-0.151362
-0.103525
-0.113135
-0.084524
-0.035191
-0.078594
-0.037719
-0.021007
0.009888
-0.030040
0.010712
0.028137
0.012525
0.009487
0.085936
0.058317
0.082855
0.061620
0.069893
0.075769
0.039167
0.082040
0.054620
0.099983
0.072324
0.101975
0.111089
0.088838
0.096610
0.080889
0.065756
0.084278
0.048496
0.097437
0.064987
0.106888
0.101755
0.128231
0.121163
0.108331
0.143665
0.114174
0.104177
0.098406
0.118366
0.144681
0.104507
0.177182
0.142204
0.151980
0.132774
0.115676
0.146533
0.117036
0.140266
0.157810
0.158036
0.149525
0.161252
0.179549
0.152583
0.124156
0.130261
0.160693
0.166854
0.168161
0.212810
0.231927
0.225239
0.218623
0.187971
0.181176
0.188441
0.192093
0.225059
0.201780
0.184854
0.251250
0.211787
0.202558
0.218893
0.198196
0.217280
0.222540
0.241958
0.229079
0.208559
0.232041
0.261363
0.267863
0.244067
0.236403
0.225723
0.244590
0.245736
0.239865
0.256908
0.244924
0.290172
0.272543
0.258971
0.233771
0.239337
0.244750
0.225849
0.260238
0.254981
0.286211
0.271785
0.272294
0.292437
0.268980
0.267539
0.228261
0.236406
0.232365
0.269107
0.271694
0.261227
0.294330
0.265187
0.256225
0.245646
0.279059
0.246675
0.269769
0.288040
0.240475
0.247514
0.261503
0.220285
0.259522
0.231030
0.230673
0.228106
0.223554
0.236725
0.254426
0.247331
0.224942
0.262064
0.225960
0.241649
0.219493
0.217914
0.208721
0.265622
0.234097
0.221646
0.215681
0.211706
0.210326
0.217826
0.197461
0.203497
0.225004
0.162636
0.196060
0.204125
0.194726
0.192191
0.187008
0.170135
0.204430
0.170120
0.143318
0.144268
0.166901
0.200262
0.159169
0.112825
0.129557
0.181676
0.123910
0.121989
0.152444
0.168207
0.121312
0.139583
0.085018
0.127713
0.097143
0.139205
0.082529
0.092836
0.105893
0.103618
0.093486
0.122367
0.075995
0.095068
0.116650
0.065689
0.045600
0.070888
0.032780
0.061924
0.054497
0.109784
0.067042
0.046698
0.074209
0.056995
0.021767
0.025662
0.039545
0.046580
0.072985
0.051268
0.027071
0.048308
-0.009475
0.006785
0.014047
-0.001141
0.025345
-0.047585
-0.018734
-0.047984
-0.057972
-0.029993
-0.050823
-0.037420
-0.070605
-0.092745
-0.028772
-0.084328
-0.044020
-0.089342
-0.040200
-0.037049
-0.078802
-0.060645
-0.067447
-0.094372
-0.048402
-0.057645
-0.067199
-0.053814
-0.065116
-0.050644
-0.088594
-0.051863
-0.054332
-0.056249
-0.052506
-0.042236
-0.039047
-0.027353
-0.024169
-0.020425
-0.050414
-0.074278
-0.013044
-0.039456
-0.077705
-0.059924
-0.038200
-0.063358
-0.010644
-0.022282
-0.038148
-0.057744
-0.053230
-0.068930
-0.035055
-0.042363
-0.050401
-0.042870
-0.026660
-0.017100
-0.031309
-0.048879
-0.067165
-0.046125
-0.034125
-0.019190
-0.029376
-0.065002
-0.026615
-0.029807
-0.066253
-0.026403
-0.015889
-0.064892
-0.044165
-0.046359
-0.022629
-0.025242
0.004480
-0.025106
-0.036314
-0.016821
-0.041127
-0.031880
-0.066843
-0.004884
-0.039712
-0.016340
-0.035648
0.023324
-0.019834
-0.040168
-0.003411
-0.013653
-0.030614
0.022055
-0.034017
0.020501
0.006170
-0.002590
-0.009669
0.007818
0.020130
0.002195
-0.009281
0.024569
0.006379
0.027273
0.012779
0.019711
0.039267
0.012237
0.045549
0.021673
0.011838
0.017367
0.028426
0.015147
0.008329
0.082699
0.055945
0.026767
-0.012351
0.044351
0.014636
0.020402
0.029957
0.081671
0.047047
0.036297
0.062955
0.039776
0.052430
0.031346
0.059285
0.097139
0.029196
0.041715
0.046089
0.094453
0.065001
0.040016
0.062764
0.073878
0.086323
0.078466
0.046716
0.130927
0.080277
0.072787
0.065256
0.086800
0.064958
0.054570
0.080533
0.078310
0.055742
0.094097
0.101834
0.088488
0.077937
0.048128
0.044878
0.067022
0.056149
0.103103
0.075174
0.071086
0.067834
0.088021
0.052462
0.091210
0.089925
0.032690
0.061798
0.060458
0.041509
0.068563
0.057206
0.076949
0.043183
0.037807
0.053579
0.054412
0.057987
0.063625
0.027668
0.098791
0.055739
0.066393
0.018621
0.040459
0.037847
0.053309
0.040098
0.043890
0.037787
0.027639
0.045656
0.028317
0.033561
0.055665
0.020088
0.077244
0.046332
0.082058
0.039073
0.018176
0.066166
-0.000882
0.004057
0.005887
0.049380
0.004168
-0.012584
-0.036668
0.032767
0.044553
0.016646
0.002471
-0.017347
-0.017717
0.020510
0.002161
0.019877
0.059344
0.071992
0.098554
0.103366
0.112615
0.179388
0.206929
0.268058
0.261733
0.303240
0.370638
0.441994
0.504567
0.528722
0.603525
0.638370
0.701786
0.744518
0.798737
0.879838
0.923599
0.981699
1.025570
1.089434
1.111994
1.179708
1.140789
1.146288
1.185105
1.174747
1.189999
1.185889
1.205019
1.161904
1.105955
1.127535
1.027606
1.009433
0.971526
0.904393
0.854802
0.801356
0.727595
0.656403
0.585462
0.522286
0.464473
0.359659
0.271225
0.214952
0.188323
0.144319
0.051704
0.030208
-0.037897
-0.058016
-0.099139
-0.099829
-0.109108
-0.153306
-0.127253
-0.153116
-0.134505
-0.104826
-0.115925
-0.124111
-0.096694
-0.086659
-0.076902
-0.055437
-0.058128
-0.025299
0.022950
0.022279
0.015825
0.038672
0.029482
0.061855
0.038743
0.058635
0.082629
0.109745
0.093942
0.101190
0.098337
0.098375
0.092133
0.077236
0.090012
0.111670
0.123898
0.149013
0.117267
0.104690
0.143281
0.131844
0.131785
0.138961
0.124612
0.140863
0.163011
0.156370
0.140332
0.145394
0.149936
0.162733
0.134468
0.149796
0.167883
0.140367
0.162198
0.207570
0.183196
0.184575
0.225914
0.201440
0.163564
0.189259
0.194453
0.214213
0.186992
0.236844
0.216226
0.251572
0.249355
0.261424
0.263166
0.202369
0.218727
0.233271
0.246661
0.242966
0.237617
0.271774
0.278498
0.269876
0.209529
0.256959
0.267454
0.259908
0.244828
0.295106
0.298945
0.310640
0.252352
0.238852
0.266225
0.289491
0.286932
0.264789
0.289390
0.320437
0.289850
0.347090
0.317386
0.285309
0.317914
0.332682
0.290931
0.312444
0.316283
0.329676
0.364653
0.371662
0.337959
0.297220
0.328530
0.367238
0.304530
0.341928
0.353939
0.363543
0.365070
0.309300
0.351787
0.327700
0.356909
0.348201
0.317406
0.364631
0.343982
0.358200
0.355815
0.363186
0.314677
0.329795
0.352741
0.325984
0.320976
0.346536
0.331531
0.338190
0.314368
0.321368
0.316774
0.342395
0.332901
0.339800
0.327197
0.331873
0.323995
0.338680
0.385961
0.322045
0.304438
0.297063
0.299999
0.297321
0.339362
0.285707
0.309934
0.311524
0.347165
0.379250
0.297538
0.294084
0.262652
0.322692
0.283977
0.269844
0.291207
0.262864
0.265105
0.260126
0.315907
0.282731
0.259539
0.270496
0.248631
0.298711
0.283719
0.261304
0.236476
0.269723
0.215147
0.207040
0.219536
0.226691
0.204626
0.254946
0.253249
0.245550
0.238761
0.203010
0.226390
0.211659
0.215274
0.211500
0.184272
0.193275
0.206994
0.232879
0.196368
0.211721
0.182334
0.166283
0.197019
0.141230
0.115651
0.183209
0.137742
0.191869
0.174029
0.189801
0.182594
0.172681
0.156433
0.149988
0.137333
0.119474
0.135494
0.144225
0.120563
0.141380
0.110722
0.164373
0.109412
0.105833
0.118792
0.094072
0.117655
0.050447
0.042863
0.072210
0.047135
0.057941
0.059236
0.042216
0.056814
0.030531
0.059095
0.039734
0.057890
0.062877
0.036179
0.097788
0.045895
0.024550
0.027867
0.023003
0.049212
0.073025
0.058242
0.041609
0.054973
0.047575
-0.010510
0.071834
0.030933
0.042474
0.035687
0.030979
0.069372
0.048291
0.079447
0.083697
0.007906
0.051167
0.043000
0.001842
0.058801
0.064725
0.065921
0.075789
0.044672
0.018308
0.040225
0.060869
0.071577
0.034663
0.069571
0.077554
0.034088
0.070220
0.069360
0.078468
0.048255
0.012767
0.033843
0.038169
0.027886
0.068448
0.062278
0.064516
0.092612
0.069172
0.064012
0.055697
0.064965
0.054912
0.060495
0.049191
0.082160
0.045488
0.097742
0.073733
0.060849
0.073800
0.072961
0.020435
0.044017
0.065012
0.102119
0.103388
0.090960
0.091193
0.064954
0.034271
0.056344
0.044523
0.070170
0.065292
0.121349
0.125740
0.095574
0.048261
0.075987
0.097689
0.072393
0.093745
0.118862
0.091790
0.074313
0.103954
0.105765
0.098224
0.117109
0.073282
0.090230
0.062264
0.097350
0.101256
0.079176
0.118105
0.124637
0.147598
0.128267
0.099147
0.092701
0.084488
0.107785
0.090087
0.152572
0.144359
0.132857
0.146924
0.090401
0.134712
0.088450
0.121523
0.082491
0.120961
0.144479
0.150189
0.096329
0.190419
0.091457
0.075281
0.126042
0.118497
0.107595
0.150986
0.170630
0.102670
0.105350
0.146880
0.122654
0.117115
0.128224
0.138985
0.126214
0.145519
0.180968
0.083669
0.112586
0.147831
0.109338
0.118267
0.118147
0.104261
0.134620
0.145937
0.148447
0.148474
0.165936
0.130816
0.120523
0.105089
0.098961
0.103467
0.119654
0.124508
0.122818
0.170912
0.110820
0.120898
0.118295
0.063316
0.112073
0.077396
0.098195
0.131148
0.096012
0.139239
0.086414
0.092706
0.073089
0.095400
0.062281
0.072356
0.074130
0.088899
0.090905
0.084762
0.059976
0.076601
0.071824
0.043572
0.029842
0.073086
0.074741
0.034399
0.062152
0.084182
0.060348
0.055759
0.056001
0.055826
0.003218
0.067489
0.071927
0.054738
0.014622
0.028131
0.038174
0.031330
0.016147
0.031633
0.039483
0.036241
0.051946
0.083761
0.065215
0.100801
0.122355
0.195014
0.208901
0.206388
0.229329
0.302197
0.353369
0.415786
0.451273
0.511498
0.537245
0.624452
0.690854
0.721445
0.735453
0.797289
0.865748
0.962918
0.967927
1.033858
1.067706
1.098125
1.122558
1.156967
1.192358
1.173198
1.174119
1.198137
1.195632
1.171393
1.176618
1.164518
1.091272
1.036575
0.959339
0.968638
0.894151
0.877265
0.795243
0.735349
0.659187
0.551866
0.524805
0.429173
0.340464
0.293342
0.187050
0.145015
0.076261
0.103696
0.001881
-0.035554
-0.091422
-0.098768
-0.109012
-0.151719
-0.176413
-0.136994
-0.121390
-0.138461
-0.174605
-0.146482
-0.101007
-0.107261
-0.119348
-0.091899
-0.062114
-0.050340
-0.007592
-0.010913
-0.053502
-0.004919
-0.030258
0.002344
0.037529
0.021071
0.037164
0.059039
0.060289
0.089439
0.042131
0.094616
0.033399
0.028358
0.070647
0.063009
0.108269
0.095218
0.068216
0.105587
0.075394
0.054559
0.098453
0.053945
0.111576
0.064428
0.085730
0.082091
0.134884
0.109399
0.123035
0.134357
0.105819
0.146718
0.122257
0.104961
0.096571
0.129686
0.121453
0.139551
0.149145
0.192221
0.093405
0.160561
0.145697
0.167548
0.145833
0.175819
0.175490
0.173460
0.174892
0.151942
0.169253
0.157073
0.161888
0.190786
0.204440
0.193716
0.181076
0.223853
0.200364
0.182845
0.225333
0.214960
0.210577
0.213304
0.215185
0.213176
0.219423
0.211151
0.224246
0.216733
0.227572
0.223733
0.224073
0.210502
0.232145
0.230831
0.245269
0.257385
0.256229
0.250732
0.197188
0.261086
0.242207
0.227421
0.237893
0.271448
0.257860
0.251711
0.274188
0.281842
0.256045
0.245723
0.291351
0.202575
0.252362
0.230254
0.228049
0.239586
0.302928
0.237371
0.266988
0.249528
0.237453
0.276079
0.264710
0.265209
0.277538
0.301598
0.290106
0.254265
0.245058
0.253731
0.256218
0.235049
0.255621
0.250863
0.253442
0.282551
0.295601
0.273535
0.257647
0.243082
0.246746
0.209638
0.262483
0.236465
0.240905
0.260391
0.200677
0.221901
0.225505
0.195799
0.254528
0.215874
0.231945
0.209988
0.218660
0.238004
0.201605
0.256202
0.218288
0.203181
0.196494
0.219917
0.172504
0.164933
0.170446
0.175915
0.216182
0.158494
0.180288
0.149428
0.159734
0.147428
0.147881
0.149723
0.164065
0.125867
0.167304
0.139546
0.169745
0.171726
0.114333
0.147680
0.150633
0.111189
0.143966
0.119901
0.168136
0.126220
0.117264
0.107453
0.139857
0.076902
0.075045
0.096975
0.119067
0.086430
0.090328
0.087369
0.085692
0.095932
0.064411
0.096113
0.065221
0.101387
0.042445
0.074638
0.100624
0.089843
0.082603
0.057099
0.082067
0.050312
0.010680
0.037683
0.020997
0.058697
0.056273
0.046371
0.002578
0.019421
-0.003243
0.008156
0.021120
0.031611
-0.033942
-0.030893
-0.050565
-0.032551
-0.016754
-0.050160
-0.027490
-0.068740
-0.031334
-0.063824
-0.045649
-0.060642
-0.057145
-0.057011
-0.076296
-0.077299
-0.056300
-0.060046
-0.043522
-0.048933
-0.053992
-0.046197
-0.053145
-0.060091
-0.052835
-0.066634
-0.057035
-0.070503
-0.060201
-0.084109
-0.042164
-0.074617
-0.050654
-0.023839
0.018089
-0.078739
-0.067920
-0.083759
-0.055588
-0.055784
-0.036851
-0.031801
-0.027012
-0.049887
-0.040946
-0.063678
-0.088972
-0.081327
-0.035609
-0.037712
-0.017104
-0.047145
-0.044203
-0.047708
-0.015839
-0.054592
-0.050826
-0.045574
-0.056433
-0.015523
-0.020332
-0.037504
-0.016457
-0.009209
-0.027326
-0.054467
-0.014148
-0.024883
-0.056379
-0.072329
-0.054253
-0.013017
0.002278
-0.036924
-0.023635
-0.037811
-0.039221
-0.063026
-0.034494
-0.040980
-0.024179
0.002918
-0.008404
-0.001967
0.018047
-0.036058
-0.040782
-0.004307
-0.053872
0.010087
-0.023543
-0.017703
0.000367
-0.008248
-0.004340
-0.046327
-0.007153
0.007027
0.016393
0.004400
-0.026602
0.000972
-0.020847
0.042843
0.013444
0.030948
0.003728
0.020110
-0.010665
-0.001908
0.031358
0.005557
0.031161
0.032868
0.054900
0.030189
-0.007813
0.007798
0.020919
0.048652
0.038588
0.066828
0.044168
0.034820
0.053425
0.026060
0.034436
0.071488
0.067759
0.086503
0.056755
0.017836
0.058155
0.040840
0.065049
0.063101
0.008083
0.057046
0.046161
0.032924
0.037013
0.073036
0.074113
0.120295
0.064842
0.057185
0.071437
0.008127
0.079429
0.054848
0.036678
0.066291
0.091704
0.084592
0.052442
0.089587
0.072445
0.063715
0.066534
0.098895
0.084846
0.047064
0.089939
0.059520
0.082506
0.062265
0.062258
0.063008
0.023116
0.090740
0.047325
0.057768
0.070594
0.031426
0.064594
0.047911
0.040304
0.044704
0.057702
0.040403
0.035311
0.046294
0.082042
0.083237
0.041909
0.065854
0.060425
0.040333
0.024031
0.044180
0.081646
0.101902
0.037994
0.053502
0.042122
0.043727
-0.007529
0.021495
0.015515
0.038771
0.012165
0.032668
0.054960
0.044371
-0.022721
0.028415
0.009793
0.023822
-0.026331
0.015913
0.037256
0.000484
0.022752
-0.033022
-0.006052
0.024101
0.009982
0.019446
0.012617
0.053499
0.016310
0.097734
0.076415
0.125148
0.118956
0.156437
0.189521
0.240336
0.299462
0.303598
0.358524
0.474514
0.500695
0.563452
0.601278
0.670681
0.708182
0.778744
0.822215
0.894221
0.938468
0.988061
1.039436
1.080258
1.107204
1.157642
1.153430
1.174341
1.191505
1.215577
1.166062
1.167739
1.185329
1.173060
1.148677
1.099890
1.093205
1.006790
0.958868
0.905289
0.901808
0.820123
0.724654
0.668519
0.606761
0.529291
0.395103
0.363955
0.296201
0.227793
0.188536
0.126162
0.031576
0.031536
-0.058469
-0.054004
-0.089254
-0.092643
-0.160334
-0.140547
-0.187097
-0.119911
-0.101359
-0.114780
-0.129060
-0.126167
-0.096608
-0.097860
-0.007277
-0.040229
-0.030634
-0.015101
0.003363
0.057293
0.031957
0.022049
0.026362
0.065218
0.073203
0.095287
0.081062
0.102555
0.083965
0.106755
0.092839
0.102882
0.095939
0.079048
0.098957
0.093148
0.132241
0.132322
0.119453
0.130797
0.153605
0.136949
0.114163
0.148327
0.097300
0.096389
0.161850
0.147905
0.154544
0.181602
0.130331
0.159017
0.146474
0.166197
0.184084
0.170182
0.152075
0.163227
0.181710
0.209821
0.198753
0.184415
0.167447
0.189061
0.199028
0.193994
0.199156
0.190520
0.229151
0.220018
0.215159
0.257914
0.258816
0.239153
0.194646
0.229745
0.251914
0.262516
0.276807
0.269788
0.262847
0.253344
0.218324
0.237127
0.274380
0.283563
0.257619
0.257626
0.291402
0.294336
0.299806
0.307169
0.291859
0.303122
0.282394
0.308493
0.296919
0.304144
0.275035
0.298095
0.335192
0.317303
0.311753
0.321503
0.296197
0.284902
0.341498
0.336089
0.305594
0.303931
0.331384
0.308153
0.336982
0.333985
0.300916
0.323498
0.319425
0.332631
0.344715
0.331821
0.399184
0.363678
0.383550
0.309861
0.326535
0.328354
0.325411
0.294906
0.354118
0.350420
0.354783
0.362855
0.339916
0.360976
0.319497
0.351734
0.346342
0.337930
0.327449
0.348393
0.379955
0.340582
0.351607
0.340956
0.314409
0.286308
0.360814
0.308000
0.314531
0.321622
0.282831
0.357299
0.308591
0.259536
0.298663
0.308043
0.330676
0.263097
0.339826
0.335212
0.319746
0.317006
0.324209
0.297756
0.253228
0.296542
0.283949
0.291953
0.281766
0.284430
0.282839
0.242169
0.288939
0.230144
0.268777
0.281601
0.272650
0.246265
0.274564
0.258504
0.237288
0.188237
0.223542
0.255274
0.222648
0.235462
0.216789
0.237230
0.231405
0.240137
0.217987
0.180463
0.239958
0.201691
0.228553
0.230936
0.175567
0.200610
0.204588
0.214415
0.198815
0.195960
0.204014
0.169054
0.177386
0.183569
0.158542
0.176628
0.153276
0.132655
0.176357
0.174118
0.166493
0.165852
0.140409
0.144739
0.139989
0.160742
0.181554
0.168182
0.150169
0.183313
0.161042
0.098046
0.141255
0.119517
0.133222
