0.0000
0.0000
0.0000
0.0000
0.0000
0.0000
0.0000
0.0000
0.0000
0.0000
0.0000
0.0000
0.0000
0.0000
0.0000
0.0000
0.0000
0.0000
0.0000
0.0000
0.0000
0.0000
0.0000
0.0000
0.0000
0.0000
0.0000
0.0000
0.0000
0.0000
0.0000
0.0000
0.0000
0.0000
0.0000
0.0001
0.0001
0.0001
0.0001
0.0001
0.0002
0.0002
0.0002
0.0003
0.0004
0.0004
0.0005
0.0006
0.0008
0.0009
0.0011
0.0013
0.0016
0.0019
0.0022
0.0026
0.0031
0.0036
0.0042
0.0049
0.0057
0.0066
0.0076
0.0088
0.0101
0.0115
0.0131
0.0149
0.0169
0.0191
0.0215
0.0242
0.0271
0.0302
0.0336
0.0373
0.0412
0.0454
0.0499
0.0546
0.0597
0.0649
0.0705
0.0763
0.0822
0.0884
0.0948
0.1013
0.1079
0.1146
0.1213
0.1281
0.1348
0.1414
0.1479
0.1542
0.1602
0.1660
0.1715
0.1766
0.1813
0.1856
0.1894
0.1926
0.1953
0.1975
0.1990
0.2000
0.2003
0.2001
0.1992
0.1977
0.1956
0.1930
0.1898
0.1861
0.1819
0.1773
0.1723
0.1668
0.1611
0.1550
0.1487
0.1422
0.1355
0.1286
0.1216
0.1144
0.1070
0.0995
0.0918
0.0838
0.0755
0.0669
0.0578
0.0480
0.0376
0.0264
0.0142
0.0009
-0.0137
-0.0296
-0.0470
-0.0660
-0.0865
-0.1085
-0.1321
-0.1570
-0.1831
-0.2099
-0.2371
-0.2642
-0.2903
-0.3147
-0.3360
-0.3529
-0.3633
-0.3649
-0.3544
-0.3282
-0.2814
-0.2083
-0.1024
0.0437
0.2377
0.4874
0.7999
1.1805
1.6325
2.1551
2.7435
3.3876
4.0716
4.7748
5.4716
6.1332
6.7292
7.2301
7.6092
7.8449
7.9229
7.8367
7.5890
7.1904
6.6592
6.0193
5.2984
4.5261
3.7313
2.9413
2.1802
1.4679
0.8203
0.2489
-0.2390
-0.6396
-0.9523
-1.1795
-1.3258
-1.3979
-1.4041
-1.3541
-1.2582
-1.1272
-0.9715
-0.8012
-0.6251
-0.4508
-0.2844
-0.1302
0.0090
0.1317
0.2378
0.3280
0.4037
0.4666
0.5187
0.5619
0.5980
0.6285
0.6549
0.6780
0.6989
0.7181
0.7360
0.7531
0.7694
0.7851
0.8004
0.8152
0.8296
0.8435
0.8570
0.8700
0.8825
0.8945
0.9060
0.9169
0.9272
0.9369
0.9460
0.9544
0.9622
0.9692
0.9756
0.9813
0.9862
0.9904
0.9938
0.9965
0.9985
0.9996
1.0000
0.9996
0.9985
0.9965
0.9938
0.9904
0.9862
0.9813
0.9756
0.9692
0.9622
0.9544
0.9460
0.9369
0.9272
0.9169
0.9060
0.8945
0.8825
0.8700
0.8570
0.8435
0.8297
0.8154
0.8007
0.7857
0.7704
0.7548
0.7390
0.7229
0.7066
0.6902
0.6736
0.6570
0.6402
0.6234
0.6065
0.5897
0.5729
0.5561
0.5394
0.5228
0.5063
0.4900
0.4738
0.4578
0.4420
0.4265
0.4111
0.3960
0.3812
0.3666
0.3523
0.3383
0.3247
0.3113
0.2982
0.2855
0.2731
0.2611
0.2494
0.2380
0.2270
0.2163
0.2059
0.1959
0.1863
0.1770
0.1680
0.1593
0.1510
0.1430
0.1353
0.1280
0.1209
0.1142
0.1077
0.1015
0.0956
0.0900
0.0847
0.0796
0.0747
0.0701
0.0657
0.0616
0.0576
0.0539
0.0504
0.0471
0.0439
0.0410
0.0382
0.0356
0.0331
0.0307
0.0286
0.0265
0.0246
0.0228
0.0211
0.0195
0.0181
0.0167
0.0154
0.0142
0.0131
0.0121
0.0111
0.0102
0.0094
0.0086
0.0079
0.0073
0.0066
0.0061
0.0056
0.0051
0.0046
0.0042
0.0039
0.0035
0.0032
0.0029
0.0027
0.0024
0.0022
0.0020
0.0018
0.0016
0.0015
0.0013
0.0012
0.0011
0.0010
0.0009
0.0008
0.0007
0.0007
0.0006
0.0006
0.0005
0.0005
0.0005
0.0005
0.0005
0.0005
0.0005
0.0005
0.0006
0.0006
0.0007
0.0008
0.0009
0.0011
0.0013
0.0015
0.0018
0.0021
0.0024
0.0028
0.0033
0.0038
0.0045
0.0052
0.0060
0.0070
0.0080
0.0092
0.0106
0.0121
0.0137
0.0156
0.0177
0.0199
0.0224
0.0251
0.0281
0.0313
0.0348
0.0385
0.0426
0.0469
0.0514
0.0563
0.0614
0.0668
0.0724
0.0782
0.0843
0.0905
0.0969
0.1035
0.1101
0.1169
0.1236
0.1303
0.1370
0.1436
0.1500
0.1562
0.1622
0.1679
0.1733
0.1782
0.1828
0.1869
0.1905
0.1936
0.1961
0.1981
0.1994
0.2002
0.2003
0.1998
0.1988
0.1971
0.1948
0.1920
0.1886
0.1848
0.1804
0.1757
0.1705
0.1650
0.1591
0.1530
0.1466
0.1400
0.1332
0.1263
0.1192
0.1119
0.1045
0.0969
0.0891
0.0811
0.0727
0.0639
0.0546
0.0447
0.0340
0.0224
0.0099
-0.0038
-0.0188
-0.0353
-0.0532
-0.0726
-0.0937
-0.1162
-0.1403
-0.1656
-0.1919
-0.2190
-0.2462
-0.2730
-0.2987
-0.3222
-0.3422
-0.3572
-0.3649
-0.3629
-0.3477
-0.3151
-0.2602
-0.1770
-0.0585
0.1027
0.3144
0.5843
0.9190
1.3232
1.7990
2.3444
2.9527
3.6121
4.3051
5.0092
5.6975
6.3407
6.9082
7.3712
7.7045
7.8889
7.9124
7.7717
7.4721
7.0270
6.4566
5.7866
5.0452
4.2622
3.4662
2.6833
1.9364
1.2442
0.6209
0.0767
-0.3823
-0.7535
-1.0374
-1.2370
-1.3577
-1.4068
-1.3932
-1.3267
-1.2179
-1.0775
-0.9159
-0.7427
-0.5665
-0.3942
-0.2315
-0.0820
0.0517
0.1689
0.2696
0.3547
0.4260
0.4851
0.5340
0.5746
0.6087
0.6377
0.6629
0.6852
0.7055
0.7242
0.7418
0.7586
0.7747
0.7903
0.8054
0.8200
0.8343
0.8480
0.8614
0.8742
0.8865
0.8984
0.9097
0.9204
0.9305
0.9400
0.9488
0.9571
0.9646
0.9714
0.9776
0.9830
0.9877
0.9916
0.9948
0.9973
0.9989
0.9998
1.0000
0.9993
0.9979
0.9957
0.9928
0.9891
0.9846
0.9795
0.9736
0.9670
0.9596
0.9517
0.9430
0.9337
0.9238
0.9133
0.9022
0.8906
0.8784
0.8657
0.8526
0.8390
0.8250
0.8105
0.7958
0.7807
0.7653
0.7496
0.7337
0.7175
0.7012
0.6847
0.6681
0.6514
0.6346
0.6178
0.6009
0.5841
0.5673
0.5505
0.5339
0.5173
0.5009
0.4846
0.4685
0.4525
0.4368
0.4213
0.4061
0.3910
0.3763
0.3618
0.3476
0.3337
0.3202
0.3069
0.2940
0.2813
0.2691
0.2571
0.2455
0.2343
0.2234
0.2128
0.2026
0.1927
0.1831
0.1739
0.1651
0.1565
0.1483
0.1404
0.1328
0.1256
0.1186
0.1120
0.1056
0.0995
0.0937
0.0882
0.0829
0.0779
0.0731
0.0686
0.0643
0.0602
0.0564
0.0527
0.0493
0.0460
0.0429
0.0400
0.0373
0.0347
0.0323
0.0300
0.0279
0.0259
0.0240
0.0222
0.0206
0.0190
0.0176
0.0163
0.0150
0.0138
0.0128
0.0117
0.0108
0.0099
0.0091
0.0084
0.0077
0.0070
0.0065
0.0059
0.0054
0.0049
0.0045
0.0041
0.0037
0.0034
0.0031
0.0028
0.0026
0.0023
0.0021
0.0019
0.0017
0.0016
0.0014
0.0013
0.0012
0.0011
0.0010
0.0009
0.0008
0.0007
0.0007
0.0006
0.0006
0.0005
0.0005
0.0005
0.0005
0.0005
0.0005
0.0005
0.0005
0.0006
0.0007
0.0007
0.0009
0.0010
0.0012
0.0013
0.0016
0.0018
0.0022
0.0025
0.0030
0.0035
0.0040
0.0047
0.0055
0.0063
0.0073
0.0084
0.0097
0.0110
0.0126
0.0143
0.0163
0.0184
0.0207
0.0233
0.0261
0.0291
0.0324
0.0360
0.0399
0.0440
0.0484
0.0530
0.0580
0.0632
0.0686
0.0743
0.0802
0.0863
0.0927
0.0991
0.1057
0.1124
0.1191
0.1258
0.1326
0.1392
0.1457
0.1521
0.1582
0.1641
0.1697
0.1750
0.1798
0.1842
0.1882
0.1916
0.1945
0.1968
0.1986
0.1997
0.2003
0.2002
0.1995
0.1983
0.1964
0.1939
0.1909
0.1874
0.1834
0.1789
0.1740
0.1687
0.1630
0.1571
0.1509
0.1444
0.1378
0.1309
0.1239
0.1168
0.1095
0.1020
0.0944
0.0865
0.0783
0.0698
0.0609
0.0514
0.0412
0.0302
0.0184
0.0054
-0.0087
-0.0242
-0.0411
-0.0595
-0.0795
-0.1010
-0.1241
-0.1486
-0.1743
-0.2009
-0.2280
-0.2552
-0.2818
-0.3068
-0.3293
-0.3479
-0.3607
-0.3655
-0.3595
-0.3390
-0.2996
-0.2359
-0.1417
-0.0099
0.1672
0.3975
0.6884
1.0458
1.4739
1.9733
2.5406
3.1676
3.8404
4.5398
5.2418
5.9185
6.5397
7.0755
7.4978
7.7833
7.9150
7.8837
7.6890
7.3390
6.8496
6.2430
5.5459
4.7874
3.9970
3.2025
2.4293
1.6988
1.0282
0.4304
-0.0860
-0.5159
-0.8578
-1.1130
-1.2856
-1.3816
-1.4088
-1.3764
-1.2946
-1.1741
-1.0255
-0.8590
-0.6839
-0.5083
-0.3387
-0.1800
-0.0356
0.0926
0.2042
0.2996
0.3799
0.4469
0.5024
0.5484
0.5866
0.6189
0.6465
0.6706
0.6922
0.7119
0.7302
0.7475
0.7640
0.7800
0.7954
0.8103
0.8248
0.8389
0.8525
0.8657
0.8784
0.8905
0.9022
0.9133
0.9238
0.9337
0.9430
0.9517
0.9596
0.9670
0.9736
0.9795
0.9846
0.9891
0.9928
0.9957
0.9979
0.9993
1.0000
0.9998
0.9989
0.9973
0.9948
0.9916
0.9877
0.9830
0.9776
0.9714
0.9646
0.9571
0.9488
0.9400
0.9305
0.9204
0.9097
0.8984
0.8866
0.8742
0.8614
0.8481
0.8343
0.8202
0.8057
0.7908
0.7756
0.7601
0.7443
0.7283
0.7121
0.6957
0.6792
0.6625
0.6458
0.6290
0.6121
0.5953
0.5785
0.5617
0.5450
0.5283
0.5118
0.4954
0.4792
0.4631
0.4473
0.4316
0.4162
0.4010
0.3861
0.3714
0.3571
0.3430
0.3292
0.3157
0.3025
0.2897
0.2772
0.2650
0.2532
0.2417
0.2306
0.2198
0.2093
0.1992
0.1895
0.1800
0.1709
0.1622
0.1537
0.1456
0.1379
0.1304
0.1232
0.1164
0.1098
0.1036
0.0976
0.0919
0.0864
0.0812
0.0763
0.0716
0.0672
0.0629
0.0589
0.0551
0.0516
0.0482
0.0450
0.0419
0.0391
0.0364
0.0339
0.0315
0.0293
0.0272
0.0252
0.0234
0.0217
0.0200
0.0185
0.0171
0.0158
0.0146
0.0135
0.0124
0.0114
0.0105
0.0097
0.0089
0.0081
0.0075
0.0068
0.0063
0.0057
0.0052
0.0048
0.0044
0.0040
0.0036
0.0033
0.0030
0.0027
0.0025
0.0023
0.0021
0.0019
0.0017
0.0015
0.0014
0.0013
0.0011
0.0010
0.0009
0.0008
0.0008
0.0007
0.0006
0.0006
0.0006
0.0005
0.0005
0.0005
0.0005
0.0005
0.0005
0.0005
0.0006
0.0006
0.0007
0.0008
0.0009
0.0010
0.0012
0.0014
0.0017
0.0019
0.0023
0.0027
0.0031
0.0037
0.0043
0.0050
0.0057
0.0066
0.0077
0.0088
0.0101
0.0115
0.0132
0.0150
0.0169
0.0191
0.0216
0.0242
0.0271
0.0302
0.0336
0.0373
0.0412
0.0454
0.0499
0.0546
0.0597
0.0649
0.0705
0.0763
0.0822
0.0884
0.0948
0.1013
0.1079
0.1146
0.1213
0.1281
0.1348
0.1414
0.1479
0.1542
0.1602
0.1660
0.1715
0.1766
0.1813
0.1856
0.1894
0.1926
0.1953
0.1975
0.1990
0.2000
0.2003
0.2001
0.1992
0.1977
0.1956
0.1930
0.1898
0.1861
0.1819
0.1773
0.1723
0.1668
0.1611
0.1550
0.1487
0.1422
0.1355
0.1286
0.1216
0.1144
0.1070
0.0995
0.0918
0.0838
0.0755
0.0669
0.0578
0.0480
0.0376
0.0264
0.0142
0.0009
-0.0137
-0.0296
-0.0470
-0.0660
-0.0865
-0.1085
-0.1321
-0.1570
-0.1831
-0.2099
-0.2371
-0.2642
-0.2903
-0.3147
-0.3360
-0.3529
-0.3633
-0.3649
-0.3544
-0.3282
-0.2814
-0.2083
-0.1024
0.0437
0.2377
0.4874
0.7999
1.1805
1.6325
2.1551
2.7435
3.3876
4.0716
4.7748
5.4716
6.1332
6.7292
7.2301
7.6092
7.8449
7.9229
7.8367
7.5890
7.1904
6.6592
6.0193
5.2984
4.5261
3.7313
2.9413
2.1802
1.4679
0.8203
0.2489
-0.2390
-0.6396
-0.9523
-1.1795
-1.3258
-1.3979
-1.4041
-1.3541
-1.2582
-1.1272
-0.9715
-0.8012
-0.6251
-0.4508
-0.2844
-0.1302
0.0090
0.1317
0.2378
0.3280
0.4037
0.4666
0.5187
0.5619
0.5980
0.6285
0.6549
0.6780
0.6989
0.7181
0.7360
0.7531
0.7694
0.7851
0.8004
0.8152
0.8296
0.8435
0.8570
0.8700
0.8825
0.8945
0.9060
0.9169
0.9272
0.9369
0.9460
0.9544
0.9622
0.9692
0.9756
0.9813
0.9862
0.9904
0.9938
0.9965
0.9985
0.9996
1.0000
0.9996
0.9985
0.9965
0.9938
0.9904
0.9862
0.9813
0.9756
0.9692
0.9622
0.9544
0.9460
0.9369
0.9272
0.9169
0.9060
0.8945
0.8825
0.8700
0.8570
0.8435
0.8297
0.8154
0.8007
0.7857
0.7704
0.7548
0.7390
0.7229
0.7066
0.6902
0.6736
0.6570
0.6402
0.6234
0.6065
0.5897
0.5729
0.5561
0.5394
0.5228
0.5063
0.4900
0.4738
0.4578
0.4420
0.4265
0.4111
0.3960
0.3812
0.3666
0.3523
0.3383
0.3247
0.3113
0.2982
0.2855
0.2731
0.2611
0.2494
0.2380
0.2270
0.2163
0.2059
0.1959
0.1863
0.1770
0.1680
0.1593
0.1510
0.1430
0.1353
0.1280
0.1209
0.1142
0.1077
0.1015
0.0956
0.0900
0.0847
0.0796
0.0747
0.0701
0.0657
0.0616
0.0576
0.0539
0.0504
0.0471
0.0439
0.0410
0.0382
0.0356
0.0331
0.0307
0.0286
0.0265
0.0246
0.0228
0.0211
0.0195
0.0181
0.0167
0.0154
0.0142
0.0131
0.0121
0.0111
0.0102
0.0094
0.0086
0.0079
0.0073
0.0066
0.0061
0.0056
0.0051
0.0046
0.0042
0.0039
0.0035
0.0032
0.0029
0.0027
0.0024
0.0022
0.0020
0.0018
0.0016
0.0015
0.0013
0.0012
0.0011
0.0010
0.0009
0.0008
0.0007
0.0007
0.0006
0.0006
0.0005
0.0005
0.0005
0.0005
0.0005
0.0005
0.0005
0.0005
0.0006
0.0006
0.0007
0.0008
0.0009
0.0011
0.0013
0.0015
0.0018
0.0021
0.0024
0.0028
0.0033
0.0038
0.0045
0.0052
0.0060
0.0070
0.0080
0.0092
0.0106
0.0121
0.0137
0.0156
0.0177
0.0199
0.0224
0.0251
0.0281
0.0313
0.0348
0.0385
0.0426
0.0469
0.0514
0.0563
0.0614
0.0668
0.0724
0.0782
0.0843
0.0905
0.0969
0.1035
0.1101
0.1169
0.1236
0.1303
0.1370
0.1436
0.1500
0.1562
0.1622
0.1679
0.1733
0.1782
0.1828
0.1869
0.1905
0.1936
0.1961
0.1981
0.1994
0.2002
0.2003
0.1998
0.1988
0.1971
0.1948
0.1920
0.1886
0.1848
0.1804
0.1757
0.1705
0.1650
0.1591
0.1530
0.1466
0.1400
0.1332
0.1263
0.1192
0.1119
0.1045
0.0969
0.0891
0.0811
0.0727
0.0639
0.0546
0.0447
0.0340
0.0224
0.0099
-0.0038
-0.0188
-0.0353
-0.0532
-0.0726
-0.0937
-0.1162
-0.1403
-0.1656
-0.1919
-0.2190
-0.2462
-0.2730
-0.2987
-0.3222
-0.3422
-0.3572
-0.3649
-0.3629
-0.3477
-0.3151
-0.2602
-0.1770
-0.0585
0.1027
0.3144
0.5843
0.9190
1.3232
1.7990
2.3444
2.9527
3.6121
4.3051
5.0092
5.6975
6.3407
6.9082
7.3712
7.7045
7.8889
7.9124
7.7717
7.4721
7.0270
6.4566
5.7866
5.0452
4.2622
3.4662
2.6833
1.9364
1.2442
0.6209
0.0767
-0.3823
-0.7535
-1.0374
-1.2370
-1.3577
-1.4068
-1.3932
-1.3267
-1.2179
-1.0775
-0.9159
-0.7427
-0.5665
-0.3942
-0.2315
-0.0820
0.0517
0.1689
0.2696
0.3547
0.4260
0.4851
0.5340
0.5746
0.6087
0.6377
0.6629
0.6852
0.7055
0.7242
0.7418
0.7586
0.7747
0.7903
0.8054
0.8200
0.8343
0.8480
0.8614
0.8742
0.8865
0.8984
0.9097
0.9204
0.9305
0.9400
0.9488
0.9571
0.9646
0.9714
0.9776
0.9830
0.9877
0.9916
0.9948
0.9973
0.9989
0.9998
1.0000
0.9993
0.9979
0.9957
0.9928
0.9891
0.9846
0.9795
0.9736
0.9670
0.9596
0.9517
0.9430
0.9337
0.9238
0.9133
0.9022
0.8906
0.8784
0.8657
0.8526
0.8390
0.8250
0.8105
0.7958
0.7807
0.7653
0.7496
0.7337
0.7175
0.7012
0.6847
0.6681
0.6514
0.6346
0.6178
0.6009
0.5841
0.5673
0.5505
0.5339
0.5173
0.5009
0.4846
0.4685
0.4525
0.4368
0.4213
0.4061
0.3910
0.3763
0.3618
0.3476
0.3337
0.3202
0.3069
0.2940
0.2813
0.2691
0.2571
0.2455
0.2343
0.2234
0.2128
0.2026
0.1927
0.1831
0.1739
0.1651
0.1565
0.1483
0.1404
0.1328
0.1256
0.1186
0.1120
0.1056
0.0995
0.0937
0.0882
0.0829
0.0779
0.0731
0.0686
0.0643
0.0602
0.0564
0.0527
0.0493
0.0460
0.0429
0.0400
0.0373
0.0347
0.0323
0.0300
0.0279
0.0259
0.0240
0.0222
0.0206
0.0190
0.0176
0.0163
0.0150
0.0138
0.0128
0.0117
0.0108
0.0099
0.0091
0.0084
0.0077
0.0070
0.0065
0.0059
0.0054
0.0049
0.0045
0.0041
0.0037
0.0034
0.0031
0.0028
0.0026
0.0023
0.0021
0.0019
0.0017
0.0016
0.0014
0.0013
0.0012
0.0011
0.0010
0.0009
0.0008
0.0007
0.0007
0.0006
0.0006
0.0005
0.0005
0.0005
0.0005
0.0005
0.0005
0.0005
0.0005
0.0006
0.0007
0.0007
0.0009
0.0010
0.0012
0.0013
0.0016
0.0018
0.0022
0.0025
0.0030
0.0035
0.0040
0.0047
0.0055
0.0063
0.0073
0.0084
0.0097
0.0110
0.0126
0.0143
0.0163
0.0184
0.0207
0.0233
0.0261
0.0291
0.0324
0.0360
0.0399
0.0440
0.0484
0.0530
0.0580
0.0632
0.0686
0.0743
0.0802
0.0863
0.0927
0.0991
0.1057
0.1124
0.1191
0.1258
0.1326
0.1392
0.1457
0.1521
0.1582
0.1641
0.1697
0.1750
0.1798
0.1842
0.1882
0.1916
0.1945
0.1968
0.1986
0.1997
0.2003
0.2002
0.1995
0.1983
0.1964
0.1939
0.1909
0.1874
0.1834
0.1789
0.1740
0.1687
0.1630
0.1571
0.1509
0.1444
0.1378
0.1309
0.1239
0.1168
0.1095
0.1020
0.0944
0.0865
0.0783
0.0698
0.0609
0.0514
0.0412
0.0302
0.0184
0.0054
-0.0087
-0.0242
-0.0411
-0.0595
-0.0795
-0.1010
-0.1241
-0.1486
-0.1743
-0.2009
-0.2280
-0.2552
-0.2818
-0.3068
-0.3293
-0.3479
-0.3607
-0.3655
-0.3595
-0.3390
-0.2996
-0.2359
-0.1417
-0.0099
0.1672
0.3975
0.6884
1.0458
1.4739
1.9733
2.5406
3.1676
3.8404
4.5398
5.2418
5.9185
6.5397
7.0755
7.4978
7.7833
7.9150
7.8837
7.6890
7.3390
6.8496
6.2430
5.5459
4.7874
3.9970
3.2025
2.4293
1.6988
1.0282
0.4304
-0.0860
-0.5159
-0.8578
-1.1130
-1.2856
-1.3816
-1.4088
-1.3764
-1.2946
-1.1741
-1.0255
-0.8590
-0.6839
-0.5083
-0.3387
-0.1800
-0.0356
0.0926
0.2042
0.2996
0.3799
0.4469
0.5024
0.5484
0.5866
0.6189
0.6465
0.6706
0.6922
0.7119
0.7302
0.7475
0.7640
0.7800
0.7954
0.8103
0.8248
0.8389
0.8525
0.8657
0.8784
0.8905
0.9022
0.9133
0.9238
0.9337
0.9430
0.9517
0.9596
0.9670
0.9736
0.9795
0.9846
0.9891
0.9928
0.9957
0.9979
0.9993
1.0000
0.9998
0.9989
0.9973
0.9948
0.9916
0.9877
0.9830
0.9776
0.9714
0.9646
0.9571
0.9488
0.9400
0.9305
0.9204
0.9097
0.8984
0.8866
0.8742
0.8614
0.8481
0.8343
0.8202
0.8057
0.7908
0.7756
0.7601
0.7443
0.7283
0.7121
0.6957
0.6792
0.6625
0.6458
0.6290
0.6121
0.5953
0.5785
0.5617
0.5450
0.5283
0.5118
0.4954
0.4792
0.4631
0.4473
0.4316
0.4162
0.4010
0.3861
0.3714
0.3571
0.3430
0.3292
0.3157
0.3025
0.2897
0.2772
0.2650
0.2532
0.2417
0.2306
0.2198
0.2093
0.1992
0.1895
0.1800
0.1709
0.1622
0.1537
0.1456
0.1379
0.1304
0.1232
0.1164
0.1098
0.1036
0.0976
0.0919
0.0864
0.0812
0.0763
0.0716
0.0672
0.0629
0.0589
0.0551
0.0516
0.0482
0.0450
0.0419
0.0391
0.0364
0.0339
0.0315
0.0293
0.0272
0.0252
0.0234
0.0217
0.0200
0.0185
0.0171
0.0158
0.0146
0.0135
0.0124
0.0114
0.0105
0.0097
0.0089
0.0081
0.0075
0.0068
0.0063
0.0057
0.0052
0.0048
0.0044
0.0040
0.0036
0.0033
0.0030
0.0027
0.0025
0.0023
0.0021
0.0019
0.0017
0.0015
0.0014
0.0013
0.0011
0.0010
0.0009
0.0008
0.0008
0.0007
0.0006
0.0006
0.0006
0.0005
0.0005
0.0005
0.0005
0.0005
0.0005
0.0005
0.0006
0.0006
0.0007
0.0008
0.0009
0.0010
0.0012
0.0014
0.0017
0.0019
0.0023
0.0027
0.0031
0.0037
0.0043
0.0050
0.0057
0.0066
0.0077
0.0088
0.0101
0.0115
0.0132
0.0150
0.0169
0.0191
0.0216
0.0242
0.0271
0.0302
0.0336
0.0373
0.0412
0.0454
0.0499
0.0546
0.0597
0.0649
0.0705
0.0763
0.0822
0.0884
0.0948
0.1013
0.1079
0.1146
0.1213
0.1281
0.1348
0.1414
0.1479
0.1542
0.1602
0.1660
0.1715
0.1766
0.1813
0.1856
0.1894
0.1926
0.1953
0.1975
0.1990
0.2000
0.2003
0.2001
0.1992
0.1977
0.1956
0.1930
0.1898
0.1861
0.1819
0.1773
0.1723
0.1668
0.1611
0.1550
0.1487
0.1422
0.1355
0.1286
0.1216
0.1144
0.1070
0.0995
0.0918
0.0838
0.0755
0.0669
0.0578
0.0480
0.0376
0.0264
0.0142
0.0009
-0.0137
-0.0296
-0.0470
-0.0660
-0.0865
-0.1085
-0.1321
-0.1570
-0.1831
-0.2099
-0.2371
-0.2642
-0.2903
-0.3147
-0.3360
-0.3529
-0.3633
-0.3649
-0.3544
-0.3282
-0.2814
-0.2083
-0.1024
0.0437
0.2377
0.4874
0.7999
1.1805
1.6325
2.1551
2.7435
3.3876
4.0716
4.7748
5.4716
6.1332
6.7292
7.2301
7.6092
7.8449
7.9229
7.8367
7.5890
7.1904
6.6592
6.0193
5.2984
4.5261
3.7313
2.9413
2.1802
1.4679
0.8203
0.2489
-0.2390
-0.6396
-0.9523
-1.1795
-1.3258
-1.3979
-1.4041
-1.3541
-1.2582
-1.1272
-0.9715
-0.8012
-0.6251
-0.4508
-0.2844
-0.1302
0.0090
0.1317
0.2378
0.3280
0.4037
0.4666
0.5187
0.5619
0.5980
0.6285
0.6549
0.6780
0.6989
0.7181
0.7360
0.7531
0.7694
0.7851
0.8004
0.8152
0.8296
0.8435
0.8570
0.8700
0.8825
0.8945
0.9060
0.9169
0.9272
0.9369
0.9460
0.9544
0.9622
0.9692
0.9756
0.9813
0.9862
0.9904
0.9938
0.9965
0.9985
0.9996
1.0000
0.9996
0.9985
0.9965
0.9938
0.9904
0.9862
0.9813
0.9756
0.9692
0.9622
0.9544
0.9460
0.9369
0.9272
0.9169
0.9060
0.8945
0.8825
0.8700
0.8570
0.8435
0.8297
0.8154
0.8007
0.7857
0.7704
0.7548
0.7390
0.7229
0.7066
0.6902
0.6736
0.6570
0.6402
0.6234
0.6065
0.5897
0.5729
0.5561
0.5394
0.5228
0.5063
0.4900
0.4738
0.4578
0.4420
0.4265
0.4111
0.3960
0.3812
0.3666
0.3523
0.3383
0.3247
0.3113
0.2982
0.2855
0.2731
0.2611
0.2494
0.2380
0.2270
0.2163
0.2059
0.1959
0.1863
0.1770
0.1680
0.1593
0.1510
0.1430
0.1353
0.1280
0.1209
0.1142
0.1077
0.1015
0.0956
0.0900
0.0847
0.0796
0.0747
0.0701
0.0657
0.0616
0.0576
0.0539
0.0504
0.0471
0.0439
0.0410
0.0382
0.0356
0.0331
0.0307
0.0286
0.0265
0.0246
0.0228
0.0211
0.0195
0.0181
0.0167
0.0154
0.0142
0.0131
0.0121
0.0111
